wavenumber	counts
152.775	18.5263
153.312	-11.7895
153.847	33.8947
154.384	48.7368
154.921	58
155.458	71.6842
155.993	84
156.53	146
157.067	521.053
157.602	1126.74
158.139	1124.32
158.675	979.579
159.21	486
159.747	156.632
160.284	76.6316
160.818	58.4211
161.355	50.6316
161.889	46.9474
162.426	46.1053
162.962	45.1579
163.497	49.2632
164.033	48.9474
164.568	49.579
165.104	48.8421
165.639	48.9474
166.175	50
166.709	44
167.245	42.3158
167.78	40.2105
168.316	50
168.85	40.2105
169.386	42.9474
169.92	44.4211
170.456	45.5789
170.99	43.6842
171.526	47.2632
172.06	47.4737
172.594	50.8421
173.13	45.1579
173.664	46.4211
174.2	45.1579
174.734	46.9474
175.268	47.7895
175.803	45.6842
176.337	42.9474
176.871	45.2632
177.406	42.7368
177.94	42.7368
178.474	41.6842
179.009	42.6316
179.543	46.3158
180.076	43.5789
180.61	43.0526
181.145	44
181.679	41.3684
182.212	44.3158
182.745	42.1053
183.281	41.3684
183.814	41.6842
184.347	38.1053
184.88	43.1579
185.414	42.3158
185.949	46.8421
186.482	43.0526
187.015	42
187.548	47.7895
188.081	43.1579
188.614	45.7895
189.147	44.1053
189.682	40.2105
190.215	44.8421
190.748	41.7895
191.281	46
191.814	41.7895
192.346	43.7895
192.879	47.8947
193.412	44.3158
193.944	45.7895
194.477	36.8421
195.01	44.8421
195.542	44.2105
196.075	42
196.607	46.7368
197.14	39.2632
197.672	44.3158
198.205	45.3684
198.737	41.2632
199.27	39.3684
199.802	40.6316
200.334	42.9474
200.867	40.4211
201.399	40.3158
201.931	42.5263
202.461	42.6316
202.994	43.1579
203.526	42.2105
204.058	42.7368
204.59	47.6842
205.122	38
205.654	44.2105
206.184	42.4211
206.716	45.8947
207.248	43.0526
207.78	42.9474
208.311	43.5789
208.841	40.9474
209.373	40.2105
209.905	41.4737
210.436	41.5789
210.966	43.5789
211.498	41.1579
212.029	40.1053
212.561	43.8947
213.091	43.7895
213.622	40.9474
214.154	45.6842
214.683	43.2632
215.215	47.3684
215.746	40.7368
216.275	40.3158
216.807	40.5263
217.338	43.579
217.867	40.1053
218.399	43.8947
218.928	45.2632
219.459	43.3684
219.99	38.7368
220.519	41.1579
221.05	36.9474
221.58	47.0526
222.111	41.8947
222.64	42
223.171	42.6316
223.7	46.1053
224.231	45.1579
224.759	40.3158
225.29	44.2105
225.819	48.9474
226.35	48.2105
226.879	49.5789
227.409	47.1579
227.938	45.5789
228.469	46.7368
228.997	44.1053
229.526	46.3158
230.057	48.4211
230.585	44
231.116	44.8421
231.644	45.4737
232.173	44.8421
232.703	47.0526
233.231	47.1579
233.76	51.7895
234.29	52.9474
234.818	48.2105
235.347	54.2105
235.877	57.7895
236.405	57.3684
236.933	60.5263
237.462	58.7368
237.992	65.3684
238.52	75.1579
239.048	77.2632
239.576	85.4737
240.106	109.684
240.634	146.947
241.162	273.684
241.69	946.211
242.218	3283.58
242.745	3745.79
243.275	3551.26
243.803	2480.21
244.331	634.737
244.859	165.053
245.386	99.0526
245.914	72.4211
246.442	64.6316
246.971	56.8421
247.499	49.1579
248.026	47.3684
248.554	46
249.081	47.1579
249.609	40.7368
250.136	43.7895
250.663	43.0526
251.191	43.1579
251.718	44.1053
252.245	45.4737
252.773	45.0526
253.3	44.3158
253.827	40.8421
254.354	39.2632
254.881	41.3684
255.409	40.1053
255.936	41.1579
256.463	42.2105
256.99	41.5789
257.515	42
258.042	44
258.569	42.3158
259.095	43.4737
259.622	43.2632
260.149	36
260.676	41.1579
261.203	40.3158
261.728	41.4737
262.254	42.8421
262.781	39.3684
263.308	40.4211
263.834	37.1579
264.359	38.1053
264.885	35.2632
265.412	39.2632
265.938	38.2105
266.463	41.0526
266.989	39.4737
267.516	35.1579
268.042	38.5263
268.566	40
269.093	40.2105
269.619	35.4737
270.143	39.7895
270.67	38.8421
271.196	41.0526
271.72	38.9474
272.246	37.2632
272.772	43.0526
273.296	42.2105
273.822	34.5263
274.346	42.5263
274.872	44.5263
275.398	36.4211
275.922	40.3158
276.448	42
276.972	39.5789
277.498	40.1053
278.022	37.3684
278.547	34.7368
279.071	41.7895
279.597	38.3158
280.121	37.6842
280.646	39.7895
281.17	34.2105
281.695	39.6842
282.219	38.4211
282.744	34.9474
283.268	37.7895
283.793	40
284.317	39.4737
284.84	36.8421
285.366	41.1579
285.889	34.7368
286.414	38.7368
286.938	37.6842
287.461	40.7368
287.986	41.7895
288.509	39.4737
289.033	34.5263
289.558	35.7895
290.081	35.1579
290.604	36.8421
291.129	37.8947
291.652	37.2632
292.175	36.9474
292.698	40.9474
293.223	43.1579
293.746	39.4737
294.269	34.7368
294.791	35.5789
295.316	35.2632
295.839	37.8947
296.362	36.1053
296.884	39.8947
297.407	41.5789
297.932	40.6316
298.454	40.5263
298.977	37.2632
299.5	42.3158
300.022	41.2632
300.545	38.3158
301.067	37.7895
301.59	39.3684
302.114	37.4737
302.636	34.7368
303.159	40.3158
303.681	38.7368
304.203	39.2632
304.726	33.4737
305.248	34.6316
305.77	33.8947
306.292	37.0526
306.814	37.3684
307.337	35.5789
307.859	38.5263
308.381	32.1053
308.903	36.6316
309.425	38
309.947	34.8421
310.469	42.1053
310.991	40.8421
311.512	35.7895
312.032	38.2105
312.554	40.9474
313.076	38
313.598	38
314.119	32.5263
314.641	35.4737
315.163	37.1579
315.683	37.8947
316.204	38.7368
316.726	37.0526
317.247	36
317.769	38.8421
318.29	36.8421
318.81	44.2105
319.331	41.1579
319.853	40.1053
320.374	49.7895
320.893	77.0526
321.415	84.2105
321.936	91.6842
322.457	76.4211
322.976	52.6316
323.498	46.3158
324.019	40.6316
324.538	37.0526
325.059	40.5263
325.58	41.0526
326.099	42.1053
326.62	47.2632
327.141	41.0526
327.66	40.6316
328.181	48
328.7	51.2632
329.221	50
329.742	58.2105
330.26	74.2105
330.781	94.2105
331.3	201.579
331.821	520.947
332.339	949.474
332.86	2228.42
333.379	2379.37
333.899	2285.79
334.418	1643.47
334.938	608.947
335.457	264.211
335.977	107.368
336.496	72
337.016	54.6316
337.535	55.1579
338.053	45.1579
338.573	48.5263
339.092	42.8421
339.612	42.2105
340.13	36.3158
340.649	41.0526
341.169	36.9474
341.687	41.2632
342.205	38.7368
342.725	39.8947
343.243	39.0526
343.761	37.0526
344.281	39.0526
344.799	40
345.317	39.3684
345.837	34.6316
346.355	38.6316
346.873	38.1053
347.391	39.4737
347.91	32.1053
348.428	35.3684
348.946	36.4211
349.464	30
349.983	36.4211
350.501	34.9474
351.019	33.0526
351.536	36.6316
352.054	32
352.572	36.3158
353.089	31.6842
353.608	35.5789
354.126	36.9474
354.643	31.7895
355.161	40.3158
355.678	37.1579
356.195	33.3684
356.713	37.5789
357.23	33.4737
357.747	31.5789
358.265	31.3684
358.782	35.0526
359.299	31.2632
359.816	33.3684
360.333	31.6842
360.85	34.6316
361.367	31.5789
361.884	31.8947
362.401	30.9474
362.918	32.3158
363.435	34.2105
363.952	35.7895
364.469	35.8947
364.986	32.3158
365.503	33.0526
366.019	33.2632
366.536	34.8421
367.053	34.9474
367.568	34.8421
368.084	34.6316
368.601	36.1053
369.117	31.0526
369.634	32.5263
370.15	34.4211
370.665	33.3684
371.182	32
371.698	28.3158
372.214	33.6842
372.731	29.6842
373.245	34.8421
373.762	36.7368
374.278	33.6842
374.794	36.2105
375.308	29.7895
375.825	31.7895
376.341	35.6842
376.855	31.7895
377.371	33.6842
377.887	34.8421
378.401	36.1053
378.917	34
379.433	32.4211
379.947	30.9474
380.463	33.3684
380.977	30.4211
381.493	31.8947
382.009	30.2105
382.523	34.6316
383.039	34.8421
383.553	33.7895
384.068	34.6316
384.582	35.7895
385.098	35.4737
385.613	38.3158
386.127	35.1579
386.643	34.4211
387.156	29.5789
387.672	33.8947
388.185	33.1579
388.699	27.5789
389.214	31.1579
389.728	32.1053
390.243	37.6842
390.757	34.3158
391.272	33.7895
391.785	38.2105
392.299	35.4737
392.814	34.4211
393.327	34.6316
393.842	30
394.356	34.6316
394.869	32.6316
395.384	34.2105
395.897	34.5263
396.41	36.8421
396.925	33.1579
397.438	37.0526
397.951	34.5263
398.464	32.7368
398.979	34.1053
399.492	35.4737
400.005	37.7895
400.518	36.1053
401.032	38.2105
401.545	35.3684
402.058	34.6316
402.571	35.8947
403.083	32.7368
403.598	36.4211
404.111	38
404.623	34.6316
405.136	37.2632
405.648	32.9474
406.161	36.2105
406.673	37.0526
407.186	38.6316
407.7	35.1579
408.213	42
408.725	37.0526
409.237	40.9474
409.75	43.1579
410.262	42.8421
410.774	42.3158
411.287	42.9474
411.799	46
412.311	47.5789
412.823	45.1579
413.335	51.6842
413.847	47.5789
414.359	48.6316
414.871	47.3684
415.383	53.6842
415.895	57.5789
416.407	59.4737
416.919	62.9474
417.431	69.7895
417.941	91.3684
418.453	111.895
418.965	138.947
419.477	177.053
419.988	299.158
420.5	620.316
421.012	3349.58
421.521	8270.11
422.033	8944.63
422.545	8381.47
423.056	5636.42
423.568	1723.05
424.077	665.789
424.589	290.211
425.1	159.158
425.612	120
426.121	99.2632
426.632	84.1053
427.144	71.0526
427.655	60.4211
428.164	63.579
428.676	55.5789
429.187	53.5789
429.696	42.2105
430.207	48.5263
430.718	40.4211
431.228	46.2105
431.739	44.8421
432.248	41.7895
432.759	44
433.27	34.4211
433.779	40.7368
434.29	38.7368
434.799	38.8421
435.31	35.2632
435.82	35.6842
436.329	38.2105
436.84	35.5789
437.349	34.6316
437.86	33.1579
438.368	36
438.879	34.3158
439.388	39.7895
439.898	34.1053
440.407	34.3158
440.916	35.5789
441.426	32
441.935	33.7895
442.445	37.0526
442.954	37.0526
443.464	36.6316
443.972	34.8421
444.481	36.7368
444.991	33.0526
445.5	36.2105
446.008	38.8421
446.518	38.6316
447.026	39.6842
447.535	36.3158
448.045	41.7895
448.553	40.6316
449.061	39.8947
449.571	40.6316
450.079	39.579
450.587	44.1053
451.095	39.7895
451.605	41.7895
452.113	45.8947
452.621	41.8947
453.129	42.9474
453.637	49.0526
454.147	48.8421
454.655	39.7895
455.162	50.7368
455.67	62.7368
456.178	63.2632
456.686	69.7895
457.193	84.9474
457.703	131.789
458.211	493.684
458.718	963.263
459.226	1048.63
459.733	867.79
460.241	617.579
460.748	212.737
461.256	122
461.763	108.316
462.271	109.789
462.778	113.158
463.285	114.526
463.793	131.579
464.3	136.316
464.807	148.105
465.315	177.263
465.822	198.842
466.329	242.105
466.836	309.579
467.343	402.737
467.85	557.789
468.357	926.737
468.864	2238.53
469.371	4606
469.876	22179.8
470.383	33437.1
470.89	33824.3
471.397	26104.5
471.904	15944.5
472.411	3159.16
472.916	1122
473.422	605.474
473.929	412.105
474.436	296.526
474.943	228.737
475.447	188.737
475.954	168
476.461	132.105
476.967	114.842
477.472	107.474
477.978	92.6316
478.485	80.7368
478.989	81.1579
479.496	70.7368
480.002	70.421
480.507	66.7369
481.013	60.4211
481.519	56.7368
482.024	55.7895
482.53	54.6316
483.036	51.5789
483.54	44.9474
484.047	45.4737
484.551	42.4211
485.057	42.2105
485.561	45.4737
486.067	47.1579
486.573	40.2105
487.077	45.6842
487.583	59.2632
488.087	80.7368
488.593	66.3158
489.097	66.5263
489.603	60.4211
490.107	46.8421
490.613	40.9474
491.116	43.2632
491.62	38.4211
492.126	30.7368
492.63	39.0526
493.135	32.3158
493.639	35.5789
494.143	35.6842
494.648	33.2632
495.152	36
495.657	32.7368
496.161	33.1579
496.665	32.2105
497.17	29.8947
497.673	30.3158
498.177	34.8421
498.682	30.1053
499.186	31.8947
499.689	31.1579
500.192	33.0526
500.698	34.4211
501.201	30.3158
501.704	33.4737
502.207	31.7895
502.712	33.2632
503.216	31.4737
503.719	32.2105
504.222	36.7368
504.725	34.5263
505.228	28
505.733	31.3684
506.236	31.6842
506.739	29.5789
507.242	35.3684
507.745	32.5263
508.248	33.2632
508.751	28.4211
509.253	30.7368
509.756	28.7368
510.261	31.4737
510.764	22.9474
511.266	31.2632
511.769	32.5263
512.272	23.4737
512.774	32
513.277	31.8947
513.779	30.5263
514.282	26
514.784	26.9474
515.287	31.0526
515.789	28.7368
516.292	31.4737
516.792	29.2632
517.295	32.9474
517.797	29.3684
518.299	28.6316
518.802	31.579
519.304	26.8421
519.806	26.8421
520.308	31.2632
520.811	26.1053
521.311	29.0526
521.813	32.8421
522.315	32
522.817	28.3158
523.319	32.9474
523.819	31.8947
524.321	26.5263
524.823	28.2105
525.325	28.7368
525.825	28.9474
526.327	25.3684
526.829	31.0526
527.331	28.7368
527.83	26.3158
528.332	28
528.834	31.2632
529.334	26.2105
529.835	30.2105
530.337	28.3158
530.837	27.3684
531.338	26.8421
531.84	26.4211
532.339	25.7895
532.841	28.7368
533.341	24
533.842	26.7368
534.343	29.6842
534.843	29.0526
535.344	29.7895
535.844	26
536.345	26.6316
536.844	27.0526
537.346	27.6842
537.845	29.6842
538.346	27.6842
538.845	26.7368
539.346	26.6316
539.846	25.5789
540.347	31.0526
540.846	29.6842
541.345	21.5789
541.846	25.1579
542.345	26.6316
542.846	28.7368
543.345	24.6316
543.844	23.5789
544.345	26.7368
544.844	26.3158
545.344	27.8947
545.843	26.7368
546.342	26.4211
546.843	27.7895
547.342	29.2632
547.84	26.6316
548.339	26.6316
548.84	27.6842
549.338	26.6316
549.837	26.8421
550.336	26.4211
550.836	24.8421
551.335	23.8947
551.833	25.0526
552.332	22.1053
552.83	27.6842
553.331	25.3684
553.829	25.2632
554.327	28.4211
554.826	27.1579
555.324	24.4211
555.822	21.7895
556.323	23.8947
556.821	25.7895
557.319	23.6842
557.817	25.7895
558.315	22.4211
558.813	23.1579
559.312	25.2632
559.81	23.4737
560.308	24
560.806	25.4737
561.304	27.6842
561.802	24
562.3	23.6842
562.798	29.5789
563.295	24.1053
563.793	23.1579
564.291	24
564.789	23.2632
565.287	23.7895
565.784	26
566.282	23.8947
566.78	24.6316
567.277	21.4737
567.773	25.1579
568.271	24.7368
568.768	28.4211
569.266	25.7895
569.763	24.1053
570.261	25.3684
570.757	26.7368
571.254	26.4211
571.751	26.4211
572.249	26.1053
572.746	26.4211
573.242	22.2105
573.739	26.7368
574.236	27.4737
574.733	29.5789
575.229	24.5263
575.726	25.3684
576.223	26.6316
576.72	25.2632
577.215	27.2632
577.712	28.3158
578.209	26.3158
578.705	25.1579
579.202	27.8947
579.697	26.9474
580.194	30.7368
580.691	27.5789
581.186	35.8947
581.682	30.2105
582.177	31.5789
582.674	30.5263
583.171	39.4737
583.666	34.5263
584.162	39.3684
584.657	38.7368
585.154	39.7895
585.649	49.4737
586.145	52.4211
586.64	57.3684
587.136	72
587.631	95.4737
588.128	145.579
588.622	401.263
589.119	698.842
589.613	3102.53
590.108	4229.37
590.604	3128.84
591.098	2598.63
591.595	1860.11
592.089	479.263
592.583	183.158
593.08	117.158
593.574	85.6842
594.068	64.7368
594.564	57.1579
595.059	51.3684
595.553	45.5789
596.049	42.4211
596.543	40.6316
597.037	38.8421
597.531	37.7895
598.027	31.6842
598.521	32.4211
599.015	26.4211
599.509	31.1579
600.003	30.8421
600.499	34
600.993	27.4737
601.487	27.1579
601.98	29.6842
602.474	26.1053
602.968	29.8947
603.464	30.4211
603.957	28.7368
604.451	25.1579
604.945	32
605.438	29.3684
605.932	28.8421
606.426	30.9474
606.919	31.6842
607.413	30.7368
607.906	30
608.4	30.9474
608.893	39.3684
609.386	45.8947
609.88	119.579
610.373	489.263
610.867	451.474
611.36	356.842
611.853	328.737
612.346	206
612.84	61.6842
613.333	38.7368
613.826	37.3684
614.319	29.2632
614.812	30.5263
615.305	31.7895
615.798	27.2632
616.29	26.9474
616.783	26.8421
617.276	30.1053
617.768	25.4737
618.261	29.8947
618.754	32.3158
619.245	29.8947
619.738	28.6316
620.231	29.5789
620.724	30.7368
621.215	26.5263
621.707	30.9474
622.2	31.4737
622.693	30.5263
623.183	31.4737
623.676	32.7368
624.169	38
624.659	43.3684
625.152	55.8947
625.644	156.737
626.135	197.263
626.628	152.316
627.12	144.526
627.61	132.211
628.103	68.7368
628.593	50.7368
629.086	53.4737
629.578	48.6316
630.068	51.8947
630.56	59.2632
631.051	55.6842
631.543	66.5263
632.033	78.3158
632.525	90.3158
633.016	101.053
633.508	131.368
633.998	166.105
634.49	237.579
634.98	382.632
635.472	837.684
635.962	6580.42
636.454	12591.6
636.944	8559.79
637.434	7811.05
637.926	6861.47
638.416	2579.68
638.907	567.474
639.397	278.316
639.887	175.368
640.379	134
640.869	103.895
641.358	95.4737
641.85	75.5789
642.34	65.6842
642.829	52.5263
643.321	54.421
643.811	47.5789
644.3	44.7368
644.79	42.9474
645.281	37.7895
645.771	40
646.26	36.2105
646.75	42
647.239	34
647.73	34.6316
648.22	29.2632
648.709	36.6316
649.198	31.0526
649.688	30.7368
650.177	33.3684
650.666	34.1053
651.157	32.9474
651.647	32.3158
652.136	31.8947
652.625	29.3684
653.114	31.4737
653.603	28.4211
654.092	30.7368
654.581	30.1053
655.07	31.8947
655.559	30.421
656.048	28
656.537	30.4211
657.026	29.3684
657.515	29.6842
658.004	30.2105
658.492	31.5789
658.981	31.3684
659.47	34.4211
659.959	31.1579
660.447	29.6842
660.936	33.7895
661.425	54.8421
661.911	217.789
662.4	190.211
662.889	162.421
663.377	151.158
663.866	126.526
664.354	53.8947
664.841	32.9474
665.329	32.4211
665.818	30.8421
666.306	32.2105
666.794	34.4211
667.281	29.0526
667.769	31.6842
668.257	33.7895
668.746	31.0526
669.232	32.4211
669.72	33.2632
670.208	27.5789
670.695	30.6316
671.183	28.9474
671.671	28.2105
672.157	28.8421
672.645	24.5263
673.133	23.4737
673.619	21.8947
674.107	15.6842
674.595	16.7368
675.081	12
675.569	11.1579
676.055	5.89474
