wavenumber	counts
103.188	26.105
103.582	29.49
103.978	34.875
104.372	40.325
104.767	43.825
105.161	48.37
105.555	52.77
105.951	56.97
106.345	62.05
106.739	64.285
107.134	65.855
107.528	65.475
107.922	65.55
108.318	65.16
108.711	66.235
109.105	64.465
109.501	63.675
109.894	63.99
110.288	63.35
110.682	63.39
111.076	62.95
111.471	62.885
111.865	62.925
112.258	63.14
112.652	63.59
113.046	62.755
113.441	63.03
113.835	63.155
114.228	63.27
114.622	63.83
115.015	63.58
115.409	63.35
115.802	62.805
116.197	62.785
116.591	62.235
116.984	62.535
117.378	62.12
117.771	61.735
118.165	61.005
118.558	61.185
118.951	61.52
119.345	60.14
119.738	60.78
120.131	61.215
120.525	61.145
120.918	61.125
121.311	61.405
121.704	61.63
122.098	60.925
122.491	61.01
122.884	60.965
123.277	62.305
123.67	60.79
124.062	61.785
124.455	61.08
124.848	60.645
125.241	61.15
125.634	60
126.027	60.925
126.42	60.625
126.812	59.595
127.204	59.515
127.597	58.975
127.99	59.145
128.383	59.735
128.775	59.77
129.167	59.96
129.56	59.63
129.953	60.055
130.344	60.355
130.737	60.765
131.13	61.03
131.521	60.05
131.914	60.7
132.307	59.625
132.699	60.005
133.09	60.385
133.483	59.95
133.874	59.95
134.267	60.145
134.659	58.755
135.05	59.625
135.443	59.095
135.835	59.885
136.226	58.005
136.619	59.755
137.01	58.935
137.402	59.33
137.793	59.31
138.186	59.205
138.577	59.36
138.969	59.22
139.36	60.43
139.752	60.965
140.143	60.085
140.535	60.495
140.926	60.39
141.318	59.63
141.709	60.065
142.101	60.19
142.492	60.175
142.882	58.97
143.275	58.84
143.665	60.455
144.057	60.36
144.448	60.12
144.839	60.155
145.231	60.77
145.621	61.29
146.012	61.5
146.404	62.465
146.794	62.155
147.185	62.49
147.575	63.305
147.967	62.21
148.357	62.625
148.748	61.82
149.138	61.735
149.53	62.395
149.92	61.87
150.31	62.85
150.701	63.135
151.091	61.695
151.483	62.915
151.873	61.81
152.263	61.95
152.653	62.99
153.044	61.41
153.434	62.44
153.825	62.265
154.215	63.265
154.605	63.825
154.996	63.535
155.386	64.04
155.776	63.36
156.166	63.685
156.556	63.57
156.946	63.545
157.336	63.3
157.725	64.335
158.115	64.56
158.505	64.29
158.895	64.49
159.285	63.93
159.675	63.73
160.065	64.235
160.454	64.435
160.844	63.39
161.234	64.19
161.624	64.375
162.013	64.84
162.402	65.185
162.791	63.87
163.181	65.04
163.571	65.33
163.96	66.125
164.35	66.325
164.739	66.54
165.127	66.5
165.517	65.59
165.906	67.165
166.296	67.195
166.685	67.345
167.073	66.56
167.463	66.805
167.852	66.18
168.242	65.855
168.63	66.575
169.019	67.335
169.408	65.96
169.796	67.28
170.185	66.31
170.575	68.54
170.963	68.16
171.352	68.675
171.741	68.505
172.129	68.61
172.518	68.985
172.907	69.775
173.295	69.67
173.684	69.735
174.072	70.145
174.461	70.325
174.848	71.16
175.237	70.055
175.626	69.93
176.014	70.375
176.403	69.805
176.79	70.07
177.179	69.82
177.567	69.52
177.956	69.905
178.343	70.96
178.73	71.02
179.119	70.495
179.507	69.91
179.895	71.71
180.283	72.415
180.672	70.89
181.059	72.655
181.446	72.515
181.835	73.98
182.222	72.775
182.609	72.635
182.998	73.18
183.385	73.61
183.772	74.025
184.161	73.445
184.548	72.175
184.935	73.4
185.324	73.395
185.711	72.22
186.098	73.245
186.485	74.02
186.873	73.365
187.26	72.85
187.647	73.37
188.034	73.405
188.421	75.3
188.809	75.305
189.196	74.545
189.583	75.63
189.97	77.04
190.357	76.27
190.743	74.515
191.132	76.905
191.519	76.615
191.905	75.52
192.292	75.97
192.679	76.43
193.065	76.035
193.452	75.02
193.839	76.49
194.225	76.9
194.612	77.1
194.998	76.37
195.385	77.395
195.772	78.075
196.158	78.42
196.545	79.21
196.931	78.76
197.318	78.615
197.704	78.84
198.09	78.615
198.477	79.735
198.863	79.85
199.25	80.265
199.636	79.885
200.021	79.515
200.407	80.7
200.793	79.69
201.18	79.76
201.566	80.265
201.952	79.34
202.337	79.575
202.723	78.975
203.109	79.76
203.496	80.18
203.882	80.28
204.266	79.875
204.652	81.385
205.039	81.57
205.425	81.01
205.809	82.6
206.195	82.95
206.581	82.14
206.966	83.185
207.352	83.43
207.738	81.53
208.124	82.22
208.508	83.67
208.894	81.29
209.278	82
209.664	82.165
210.05	83.37
210.434	82.185
210.82	82.31
211.204	81.945
211.59	83.125
211.976	84.165
212.36	83.46
212.746	83.51
213.13	84.38
213.516	85.05
213.9	84.815
214.286	85.185
214.67	86.86
215.055	86.05
215.439	85.73
215.825	86.685
216.209	87.49
216.593	86.68
216.979	86.85
217.363	86.825
217.748	89.34
218.132	87.58
218.516	88.045
218.901	88.26
219.285	87.945
219.669	88.875
220.054	88.37
220.438	89.46
220.822	89.28
221.207	90.35
221.591	90.54
221.975	92.08
222.36	91.91
222.744	93.015
223.128	92.12
223.511	93.815
223.896	94.555
224.28	96.21
224.664	95.205
225.047	96.065
225.431	97.53
225.816	96.52
226.2	97.265
226.583	97.09
226.967	98.01
227.35	98.085
227.734	98.945
228.117	100.28
228.502	100.09
228.886	101.335
229.269	102.955
229.652	103.83
230.036	105.49
230.419	105.465
230.802	107.29
231.186	107.28
231.569	108.91
231.952	109.55
232.336	110.18
232.719	109.89
233.102	111.17
233.485	112.385
233.868	111.575
234.252	112.355
234.635	111.06
235.018	111.985
235.401	111.415
235.783	113.205
236.166	112.82
236.549	115.27
236.932	115.915
237.315	116.97
237.698	117.89
238.081	118.57
238.464	118.72
238.845	119.415
239.228	120.21
239.611	121.56
239.994	122.5
240.375	123.095
240.758	122.825
241.141	122.66
241.524	123.55
241.905	124.845
242.288	125.075
242.67	124.685
243.053	126.075
243.434	125.98
243.817	127.08
244.2	128.55
244.581	128.96
244.964	128.505
245.346	128.705
245.727	129.765
246.11	131.03
246.491	129.775
246.874	132.8
247.256	132.715
247.637	134.245
248.02	132.545
248.401	133.04
248.783	134.215
249.164	134.565
249.546	135.52
249.927	135.455
250.31	134.4
250.691	132.74
251.073	131.3
251.454	130.945
251.836	130.915
252.217	129.545
252.599	129.41
252.98	129.08
253.362	129.08
253.743	128.1
254.124	126.96
254.506	126.71
254.886	126.595
255.267	125.545
255.649	126.705
256.03	125.67
256.41	125.95
256.792	125.71
257.173	125.965
257.554	125.585
257.936	124.965
258.316	123.74
258.697	125.365
259.077	122.795
259.459	122.835
259.839	121.39
260.22	120.355
260.6	120.62
260.982	119.305
261.362	120.17
261.743	121
262.123	121.69
262.503	121.52
262.884	121.31
263.265	122.24
263.646	121.615
264.026	123.06
264.406	123.31
264.786	122.735
265.166	122.015
265.547	123.24
265.927	122.23
266.307	123.845
266.687	125.74
267.067	124.595
267.447	125.22
267.827	124.37
268.207	126.105
268.587	124.67
268.967	125.415
269.347	125.07
269.727	126.075
270.107	125.24
270.487	126.03
270.867	126.55
271.247	128.985
271.626	127.62
272.006	127.33
272.386	129.675
272.766	129.34
273.144	129.535
273.524	130.645
273.904	131.61
274.284	130.57
274.663	131.41
275.043	131.91
275.421	131.76
275.801	129.97
276.18	130.175
276.56	131.355
276.938	130.555
277.318	130.595
277.697	130.4
278.077	130.75
278.455	130.205
278.834	130.415
279.214	130.88
279.592	133.3
279.971	131.72
280.351	132.84
280.729	133.46
281.108	134.26
281.487	135.065
281.865	133.66
282.245	136.26
282.622	134.96
283.002	135.99
283.381	133.665
283.759	135.42
284.138	134.57
284.516	134.11
284.895	133.94
285.273	134.42
285.652	133.55
286.03	133.035
286.409	134.04
286.786	133.5
287.165	134.53
287.543	134.29
287.922	135.21
288.3	136.355
288.677	135.99
289.056	135.59
289.434	136.165
289.813	137.41
290.19	136.37
290.568	136.8
290.947	136.775
291.324	137.8
291.701	136.94
292.08	137.905
292.458	136.305
292.835	137.645
293.214	137.155
293.591	136.66
293.968	135.855
294.346	136.89
294.724	136.28
295.102	136.725
295.479	136.505
295.856	137.485
296.235	136.995
296.612	136.545
296.989	137.07
297.366	137.76
297.743	137.62
298.12	139.285
298.499	138.48
298.876	139.085
299.253	140.235
299.63	140.33
300.007	140.2
300.384	139.06
300.761	139.1
301.138	137.75
301.515	138.725
301.892	138.86
302.269	138.385
302.646	136.69
303.022	137.035
303.399	137.08
303.776	137.075
304.153	137.63
304.53	138.07
304.906	139.82
305.283	139.705
305.66	140.265
306.037	139.89
306.413	139.15
306.79	140.965
307.167	140.65
307.543	141.365
307.92	138.71
308.295	140.72
308.672	137.23
309.048	137.66
309.425	140.185
309.801	138.715
310.178	137.425
310.553	138.585
310.929	138.38
311.306	137.27
311.682	138.285
312.057	137.535
312.433	138.105
312.81	137.095
313.186	136.22
313.561	137.285
313.937	137.17
314.314	137.095
314.688	136.685
315.065	138.79
315.441	137.94
315.816	139.08
316.192	137.66
316.568	137.795
316.943	135.54
317.319	136.385
317.694	135.22
318.07	133.25
318.446	136.005
318.821	135.225
319.197	134.105
319.571	133.3
319.947	133.325
320.322	133.66
320.698	133.18
321.072	133.2
321.448	132.065
321.823	132.365
322.199	133.545
322.573	132.585
322.948	132.905
323.323	132.86
323.698	133.515
324.074	133.15
324.448	134.75
324.822	131.93
325.198	131.88
325.572	131.86
325.948	131.79
326.322	129.87
326.697	131.47
327.072	128.815
327.447	129.65
327.821	129.405
328.195	129.2
328.57	129.89
328.945	129.535
329.319	130.035
329.693	129.805
330.068	131.58
330.442	131.02
330.816	130.23
331.191	130.61
331.565	131.86
331.94	129.79
332.314	131.33
332.688	130.925
333.062	132.19
333.436	129.53
333.81	130.03
334.184	131.825
334.559	128.79
334.933	131.215
335.307	129.96
335.68	130.63
336.054	128.77
336.428	128.385
336.802	128.72
337.175	128.73
337.549	128.805
337.923	128.86
338.296	129.775
338.67	130.335
339.044	130.14
339.417	128.855
339.791	131.18
340.165	132.54
340.538	130.67
340.912	130.865
341.284	130.17
341.657	131.42
342.031	132.315
342.404	130.535
342.778	130.64
343.151	130.48
343.525	128.945
343.897	130.195
344.27	131.01
344.643	129.9
345.017	129.05
345.39	127.995
345.762	130.2
346.135	131.195
346.509	128.73
346.882	130.63
347.254	130.145
347.627	129.63
348	131.46
348.373	132.385
348.745	130.81
349.118	131.82
349.491	131.33
349.863	132.065
350.236	131.5
350.608	130.48
350.981	129.96
351.354	131.135
351.725	131.34
352.098	129.35
352.47	130.29
352.843	129.53
353.216	131.01
353.587	128.395
353.96	129.38
354.332	127.67
354.705	130.17
355.076	129.485
355.449	129.385
355.82	130.22
356.193	130.945
356.564	130.21
356.936	131.325
357.308	131.17
357.68	131.275
358.052	130.725
358.424	129.67
358.795	130.01
359.168	131.275
359.539	130.645
359.911	130.165
360.283	130.005
360.654	130.115
361.026	129.315
361.397	129.735
361.769	130
362.14	129.275
362.512	130.615
362.883	129.535
363.254	131.675
363.625	131.695
363.998	130.84
364.369	130.025
364.74	130.675
365.111	131.1
365.483	132.435
365.854	131.765
366.225	131.52
366.596	130.965
366.966	131.575
367.337	131.83
367.708	132.895
368.08	132.29
368.451	130.52
368.822	130.245
369.193	129.79
369.563	129.96
369.934	128.91
370.305	130.84
370.675	130.025
371.046	129.775
371.417	129.425
371.787	129.855
372.158	130.95
372.528	130.415
372.899	131.265
373.269	131.1
373.64	130.96
374.01	131.32
374.381	129.61
374.751	130.775
375.122	130.45
375.491	130.885
375.861	131.315
376.232	129.55
376.602	128.28
376.972	128.785
377.343	127.805
377.713	127.93
378.082	128.89
378.452	126.52
378.822	126.79
379.193	127.37
379.562	125.9
379.932	127.205
380.302	127.31
380.672	125.345
381.041	126.745
381.411	126.925
381.781	126.97
382.151	127.445
382.52	126.615
382.89	128.125
383.26	127.41
383.629	126.565
383.999	125.51
384.367	125.8
384.737	124.61
385.107	124.715
385.476	124.195
385.846	124.545
386.214	123.085
386.584	122.845
386.954	124.44
387.322	124.15
387.692	121.505
388.06	122.89
388.43	121.18
388.799	122.425
389.168	121.135
389.537	122.27
389.906	121.86
390.275	122.565
390.643	123.48
391.013	121.81
391.381	122.25
391.751	123.095
392.119	121.53
392.487	121.65
392.857	120.465
393.225	120.82
393.593	119.965
393.962	119.34
394.33	119.065
394.698	118.15
395.068	118.71
395.436	118.755
395.804	117.19
396.173	119.11
396.541	115.82
396.909	117.245
397.277	116.795
397.647	117.91
398.015	116.545
398.382	117.175
398.75	117.15
399.118	118.205
399.487	118.215
399.855	118.005
400.223	117.025
400.591	117.81
400.959	115.135
401.326	116.1
401.694	113.72
402.062	113.485
402.429	114.32
402.799	113.69
403.166	112.65
403.534	112.375
403.902	112.74
404.269	112.06
404.637	112
405.004	111.79
405.372	112.32
405.739	112.59
406.107	113.025
406.474	112.47
406.842	111.02
407.208	110.88
407.575	112.715
407.943	110.985
408.31	111.17
408.678	111.455
409.045	110.55
409.412	110.2
409.78	110.07
410.147	109.9
410.513	108.85
410.88	107.69
411.247	107.925
411.615	107.95
411.982	107.295
412.348	107.39
412.715	106.865
413.082	106.095
413.449	105.995
413.815	107.255
414.182	106.21
414.549	106.5
414.916	105.67
415.282	106.44
415.649	105.395
416.016	106.455
416.382	106.375
416.749	104.865
417.116	105.555
417.481	104.725
417.848	104.1
418.214	103.405
418.581	103.025
418.947	103.565
419.313	101.18
419.68	102.7
420.045	101.86
420.412	100.94
420.777	101.655
421.144	100.27
421.509	99.54
421.876	99.82
422.242	100.68
422.608	98.92
422.974	99.56
423.34	100.24
423.705	100.16
424.071	99.955
424.437	99.185
424.803	99.655
425.169	98.405
425.534	99.615
425.899	98.465
426.266	97.86
426.631	97.86
426.996	93.245
427.363	89.185
427.728	83.27
428.093	81
428.459	82.1
428.824	85.705
429.189	88.375
429.554	89.74
429.92	92.455
430.285	93.95
430.65	94.07
431.015	93.1
431.38	92.175
431.746	93.3
432.111	90.865
432.476	91.975
432.841	90.955
433.206	91.57
433.57	89.84
433.937	90.83
434.301	89.95
434.666	89.47
435.031	88.79
435.395	88.71
435.76	88.735
436.125	88.27
436.489	87.615
436.854	86.675
437.218	86.46
437.583	86.08
437.948	85.8
438.312	86
438.677	84.605
439.041	85.63
439.406	85.48
439.77	86.44
440.135	85.6
440.499	84.76
440.863	83.25
441.228	83.46
441.591	83.47
441.955	83.07
442.32	83.24
442.684	82.815
443.048	81.445
443.412	80.9
443.775	80.51
444.14	81.345
444.504	80.465
444.868	78.985
445.232	78.67
445.595	78.95
445.959	77.82
446.323	77.4
446.688	77.01
447.05	77.695
447.414	78.06
447.778	77.13
448.141	77.295
448.505	76.955
448.869	78.15
449.232	76.18
449.596	76.305
449.96	76.325
450.322	75.62
450.686	74.555
451.049	74.79
451.413	73.63
451.775	73.78
452.139	74.27
452.503	72.75
452.865	72.55
453.229	72.445
453.591	72.085
453.955	71.095
454.318	70.685
454.681	70.485
455.044	70.825
455.406	69.27
455.77	69.26
456.132	69.99
456.496	68.91
456.858	68.74
457.221	69.51
457.584	69.415
457.946	67.45
458.309	68.53
458.672	67.01
459.034	66.3
459.397	67.69
459.759	66.77
460.121	66.45
460.485	65.365
460.847	65.41
461.209	64.68
461.571	64.315
461.934	63.73
462.296	64.33
462.658	63.77
463.02	63.665
463.384	63.005
463.745	62.29
464.107	62.88
464.469	61.835
464.831	61.49
465.193	62.6
465.556	61.545
465.918	60.875
466.28	60.95
466.641	61.255
467.003	60.375
467.365	59.3
467.727	59.89
468.088	58.27
468.45	59.695
468.812	57.57
469.173	56.735
469.535	56.6
469.897	55.98
470.258	56.41
470.62	56.02
470.981	55.11
471.343	55.065
471.704	55.97
472.066	55.265
472.427	54.96
472.789	54.605
473.15	54.18
473.512	54.32
473.872	53.54
474.233	54.12
474.594	53.75
474.956	53.37
475.317	53.03
475.679	52.34
476.038	52.185
476.4	51.335
476.761	50.65
477.122	50.955
477.484	51.595
477.843	49.54
478.205	50.33
478.566	49.995
478.927	48.58
479.287	49.53
479.648	48.7
480.009	48.65
480.369	48.26
480.73	47.84
481.091	48.025
481.45	47.11
481.811	48
482.171	47.695
482.532	47.995
482.893	46.88
483.253	47.12
483.614	46.77
483.973	45.78
484.334	45.54
484.693	44.435
485.054	45.385
485.414	44.25
485.775	43.67
486.134	42.075
486.495	40.12
486.854	39.075
487.215	35.835
487.574	34.285
487.935	32.825
488.294	30.375
488.654	28.285
489.014	26.41
