wavenumber	counts
197.067	1.23
197.674	1.405
198.283	1.67
198.893	1.8925
199.502	2.005
200.109	2.18
200.718	2.095
201.327	2.355
201.934	2.2025
202.543	2.3225
203.15	2.06
203.759	2.36
204.368	2.335
204.975	2.295
205.584	2.4075
206.19	2.365
206.799	2.285
207.408	2.345
208.014	2.3825
208.623	2.2975
209.229	2.37
209.838	2.3025
210.444	2.2575
211.053	2.305
211.659	2.3825
212.267	2.36
212.874	2.265
213.482	2.365
214.088	2.21
214.696	2.295
215.302	2.335
215.911	2.34
216.517	2.285
217.122	2.28
217.731	2.3975
218.336	2.3
218.944	2.515
219.55	2.425
220.156	2.355
220.764	2.37
221.369	2.4225
221.977	2.4975
222.583	2.4025
223.188	2.3675
223.796	2.365
224.401	2.42
225.007	2.26
225.614	2.37
226.22	2.41
226.825	2.405
227.43	2.445
228.038	2.5
228.643	2.47
229.248	2.4775
229.853	2.5
230.46	2.485
231.065	2.43
231.671	2.585
232.275	2.4775
232.88	2.475
233.487	2.6675
234.092	2.5475
234.697	2.4675
235.302	2.66
235.907	2.63
236.511	2.7275
237.118	2.6275
237.723	2.715
238.327	2.625
238.932	2.705
239.536	2.655
240.141	2.64
240.745	2.7725
241.35	2.6625
241.954	2.625
242.558	2.7025
243.162	2.67
243.767	2.6725
244.371	2.755
244.975	2.84
245.579	2.78
246.183	2.7675
246.787	2.665
247.391	2.74
247.995	2.785
248.599	2.715
249.203	2.685
249.807	2.57
250.411	2.685
251.014	2.7275
251.618	2.715
252.222	2.685
252.825	2.7425
253.429	2.745
254.03	2.635
254.634	2.74
255.237	2.6475
255.841	2.705
256.444	2.645
257.048	2.6825
257.651	2.63
258.252	2.7
258.855	2.6575
259.458	2.5825
260.062	2.7825
260.665	2.58
261.266	2.7375
261.869	2.685
262.472	2.655
263.075	2.6575
263.676	2.64
264.278	2.6725
264.881	2.66
265.482	2.675
266.085	2.63
266.688	2.645
267.288	2.735
267.891	2.8375
268.493	2.6025
269.094	2.67
269.696	2.78
270.299	2.7475
270.899	2.7125
271.502	2.6675
272.104	2.7525
272.704	2.675
273.307	2.73
273.907	2.635
274.509	2.585
275.109	2.63
275.711	2.805
276.313	2.7575
276.913	2.8475
277.515	2.7375
278.115	2.565
278.717	2.7675
279.317	2.695
279.919	2.825
280.519	2.7125
281.12	2.735
281.72	2.6725
282.322	2.7325
282.921	2.75
283.521	2.73
284.122	2.7225
284.722	2.665
285.323	2.7025
285.923	2.755
286.522	2.85
287.124	2.7875
287.723	2.6925
288.324	2.77
288.923	2.6975
289.523	2.7575
290.124	2.73
290.723	2.7375
291.322	2.81
291.923	2.845
292.522	2.7725
293.121	2.66
293.72	2.88
294.321	2.7675
294.919	2.73
295.518	2.7575
296.117	2.83
296.718	2.8625
297.316	2.745
297.915	2.7525
298.514	2.785
299.112	2.865
299.713	2.845
300.311	2.79
300.91	2.71
301.508	2.8375
302.106	2.72
302.705	2.745
303.305	2.8525
303.903	2.6625
304.501	2.805
305.099	2.715
305.698	2.7325
306.296	2.6625
306.894	2.8325
307.492	2.795
308.09	2.7725
308.688	2.785
309.285	2.78
309.883	2.685
310.481	2.71
311.079	2.6975
311.677	2.74
312.274	2.82
312.872	2.6875
313.47	2.74
314.067	2.83
314.665	2.62
315.262	2.685
315.86	2.72
316.457	2.82
317.054	2.675
317.652	2.7725
318.249	2.6425
318.846	2.7175
319.443	2.76
320.041	2.715
320.636	2.7175
321.233	2.73
321.83	2.6725
322.427	2.725
323.024	2.735
323.621	2.6875
324.216	2.665
324.813	2.7
325.409	2.5475
326.006	2.625
326.603	2.565
327.198	2.6175
327.794	2.5975
328.391	2.5825
328.987	2.65
329.582	2.575
330.178	2.645
330.775	2.4775
331.369	2.67
331.966	2.6775
332.562	2.585
333.158	2.5
333.753	2.6975
334.349	2.6
334.945	2.515
335.539	2.615
336.135	2.6
336.729	2.67
337.325	2.6625
337.921	2.57
338.515	2.605
339.111	2.6325
339.705	2.7125
340.301	2.595
340.895	2.51
341.491	2.6125
342.086	2.62
342.68	2.63
343.276	2.61
343.869	2.575
344.465	2.62
345.058	2.635
345.654	2.6375
346.247	2.645
346.841	2.6825
347.436	2.6925
348.029	2.55
348.625	2.535
349.218	2.68
349.813	2.56
350.406	2.6625
350.999	2.6625
351.595	2.54
352.188	2.49
352.783	2.595
353.376	2.555
353.969	2.605
354.563	2.5875
355.156	2.5875
355.749	2.585
356.344	2.61
356.937	2.6825
357.529	2.51
358.124	2.7525
358.717	2.5525
359.309	2.435
359.902	2.49
360.496	2.555
361.089	2.4875
361.681	2.7125
362.274	2.6275
362.866	2.5
363.46	2.6425
364.053	2.7175
364.645	2.545
365.237	2.52
365.829	2.45
366.423	2.5075
367.015	2.615
367.607	2.585
368.199	2.465
368.791	2.535
369.383	2.4925
369.975	2.52
370.567	2.6075
371.159	2.5225
371.753	2.49
372.344	2.515
372.936	2.5575
373.528	2.505
374.119	2.5275
374.711	2.6475
375.303	2.455
375.894	2.55
376.486	2.52
377.077	2.5275
377.668	2.325
378.26	2.575
378.851	2.5975
379.442	2.545
380.034	2.4375
380.623	2.5175
381.214	2.495
381.805	2.45
382.396	2.44
382.987	2.445
383.578	2.415
384.169	2.365
384.76	2.56
385.351	2.5
385.94	2.5775
386.53	2.4775
387.121	2.4075
387.712	2.42
388.303	2.4575
388.893	2.34
389.482	2.485
390.073	2.4125
390.663	2.415
391.254	2.485
391.842	2.52
392.432	2.365
393.023	2.39
393.613	2.43
394.202	2.4525
394.792	2.505
395.382	2.37
395.97	2.4175
396.56	2.445
397.151	2.325
397.739	2.4975
398.329	2.4
398.919	2.34
399.507	2.445
400.097	2.3425
400.686	2.4575
401.274	2.32
401.864	2.3675
402.452	2.3575
403.042	2.4275
403.631	2.3425
404.219	2.37
404.809	2.385
405.396	2.36
405.986	2.2825
406.573	2.375
407.163	2.24
407.75	2.315
408.34	2.3925
408.927	2.4175
409.516	2.3175
410.103	2.3075
410.693	2.345
411.28	2.27
411.867	2.29
412.456	2.29
413.043	2.285
413.632	2.405
414.219	2.26
414.808	2.3525
415.395	2.39
415.982	2.3575
416.571	2.37
417.158	2.245
417.745	2.2575
418.333	2.285
418.92	2.195
419.507	2.2125
420.095	2.2575
420.682	2.33
421.268	2.3175
421.855	2.395
422.443	2.2425
423.03	2.18
423.616	2.095
424.203	2.295
424.791	2.2525
425.377	2.1
425.963	2.25
426.55	2.2575
427.136	2.26
427.724	2.08
428.31	2.195
428.896	2.2275
429.482	2.2125
430.068	2.155
430.654	2.135
431.242	2.245
431.828	2.095
432.414	2.05
432.999	2.22
433.585	2.1575
434.171	2.0475
434.757	2.08
435.342	2.14
435.928	2.1125
436.513	2.2025
437.099	2.145
437.684	2.1375
438.27	1.955
438.855	2.15
439.441	2.18
440.026	2.09
440.611	2.17
441.197	2.0825
441.782	2.1675
442.367	2.075
442.952	2.065
443.537	1.93
444.122	2.1025
444.707	2.1
445.292	2.1125
445.877	2.0025
446.46	2.0675
447.045	2.035
447.63	2.09
448.215	2.095
448.799	2.08
449.384	1.975
449.969	2.0875
450.552	1.925
451.136	2.12
451.721	2.0925
452.305	2.025
452.89	2.025
453.472	2.08
454.057	1.86
454.641	2.0175
455.223	2.0225
455.808	2.06
456.392	1.895
456.976	2.0575
457.558	1.89
458.143	1.98
458.727	2.035
459.309	1.9375
459.893	1.9475
460.477	1.925
461.059	1.99
461.643	1.9725
462.227	2.08
462.809	2.0025
463.392	2.0225
463.974	1.9975
464.558	1.98
465.142	1.95
465.723	1.965
466.307	2.04
466.889	1.9875
467.472	1.885
468.054	1.9
468.637	1.975
469.219	1.885
469.802	1.9875
470.383	1.9425
470.967	1.8675
471.548	1.93
472.131	1.885
472.713	2.0025
473.296	1.9625
473.877	1.8975
474.458	1.9075
475.041	2.05
475.622	2.0175
476.205	1.84
476.786	1.8075
477.367	1.88
477.95	1.95
478.531	1.78
479.112	1.8375
479.694	1.82
480.275	1.94
480.856	1.91
481.438	1.74
482.019	1.8875
482.6	1.925
483.182	1.835
483.763	1.925
484.343	1.92
484.924	1.925
485.506	1.825
486.086	1.855
486.667	1.84
487.247	1.915
487.827	1.895
488.41	1.9375
488.99	1.8725
489.57	1.815
490.15	1.81
490.73	1.8075
491.31	1.85
491.892	1.8225
492.472	1.86
493.052	1.865
493.632	1.86
494.212	1.82
494.791	1.8175
495.371	1.89
495.951	1.82
496.531	1.81
497.11	1.81
497.69	1.82
498.27	1.885
498.849	1.8275
499.429	1.81
500.008	1.86
500.587	1.79
501.167	1.865
501.746	1.83
502.326	1.69
502.905	1.785
503.484	1.875
504.063	1.885
504.643	1.79
505.222	1.79
505.801	1.805
506.38	1.94
506.959	1.78
507.538	1.8425
508.115	1.83
508.694	1.77
509.273	1.78
509.851	1.805
510.43	1.765
511.009	1.8525
511.586	1.9175
512.164	1.775
512.743	1.7875
513.322	1.9375
513.9	1.7925
514.477	1.785
515.055	1.87
515.634	1.82
516.212	1.865
516.789	1.8975
517.367	1.805
517.945	2.035
518.522	2.075
519.1	2.26
519.678	2.3725
520.254	2.32
520.832	2.225
521.411	2.38
521.987	2.425
522.565	2.295
523.143	2.16
523.719	2.04
524.297	1.975
524.872	1.8275
525.45	1.8575
526.026	1.8775
526.604	1.77
527.182	1.775
527.757	1.84
528.335	1.7625
528.911	1.72
529.488	1.79
530.064	1.785
530.641	1.7725
531.217	1.8
531.794	1.74
532.37	1.7575
532.945	1.825
533.522	1.7775
534.098	1.6525
534.675	1.835
535.25	1.805
535.827	1.68
536.402	1.785
536.977	1.75
537.555	1.765
538.13	1.71
538.705	1.69
539.282	1.815
539.857	1.7325
540.431	1.7
541.008	1.8
541.583	1.6275
542.158	1.7075
542.735	1.67
543.309	1.715
543.884	1.7525
544.459	1.71
545.035	1.6725
545.61	1.76
546.184	1.715
546.759	1.61
547.335	1.6975
547.91	1.655
548.484	1.79
549.058	1.7025
549.633	1.6225
550.207	1.6725
550.783	1.68
551.357	1.65
551.932	1.61
552.506	1.75
553.08	1.74
553.654	1.56
554.228	1.7375
554.802	1.69
555.376	1.555
555.95	1.59
556.524	1.71
557.099	1.63
557.673	1.55
558.247	1.57
558.821	1.5625
559.394	1.5475
559.968	1.655
560.542	1.675
561.115	1.5725
561.687	1.625
562.26	1.61
562.834	1.6
563.407	1.505
563.981	1.645
564.554	1.555
565.127	1.485
565.701	1.6025
566.274	1.605
566.847	1.615
567.42	1.55
567.991	1.5175
568.564	1.55
569.138	1.58
569.711	1.49
570.284	1.545
570.857	1.5475
571.427	1.63
572	1.4225
572.573	1.515
573.146	1.5575
573.717	1.485
574.29	1.605
574.862	1.61
575.435	1.52
576.006	1.475
576.578	1.5475
577.151	1.4875
577.721	1.435
578.294	1.46
578.866	1.51
579.437	1.4825
580.009	1.52
580.581	1.5925
581.152	1.4225
581.724	1.5875
582.296	1.48
582.866	1.6
583.439	1.585
584.009	1.5
584.581	1.5775
585.151	1.535
585.723	1.5325
586.295	1.425
586.865	1.465
587.437	1.47
588.007	1.4975
588.578	1.61
589.148	1.58
589.72	1.5775
590.29	1.5625
590.861	1.5225
591.431	1.59
592.001	1.535
592.572	1.6025
593.142	1.5725
593.713	1.51
594.283	1.565
594.852	1.605
595.424	1.51
595.993	1.6075
596.564	1.6125
597.134	1.595
597.703	1.5
598.274	1.605
598.843	1.585
599.413	1.5825
599.984	1.6
600.553	1.6
601.122	1.585
601.691	1.6525
602.262	1.6875
602.831	1.6975
603.4	1.6375
603.969	1.6525
604.539	1.82
605.108	1.7
605.677	1.665
606.246	1.6925
606.814	1.6875
607.385	1.7575
607.954	1.71
608.522	1.6575
609.091	1.705
609.659	1.7375
610.228	1.6775
610.796	1.79
611.367	1.715
611.935	1.835
612.503	1.8075
613.072	1.7725
613.64	1.72
614.208	1.8
614.776	1.7725
615.345	1.8825
615.913	1.855
616.481	1.8625
617.049	1.775
617.617	1.87
618.185	1.88
618.753	1.81
619.321	1.8275
619.888	1.8625
620.456	1.825
621.024	1.82
621.592	1.8225
622.16	1.845
622.727	1.915
623.295	1.775
623.861	1.8425
624.428	1.875
624.996	1.84
625.563	1.9425
626.131	1.8425
626.698	1.8875
627.266	1.76
627.831	1.915
628.398	1.8175
628.966	1.875
629.533	1.865
630.1	1.835
630.665	1.87
631.232	1.84
631.8	1.895
632.367	1.8175
632.932	1.845
633.499	1.75
634.066	1.81
634.631	1.8
635.198	1.765
635.764	1.875
636.329	1.8825
636.896	1.7875
637.463	1.795
638.028	1.83
638.594	1.9075
639.161	1.7425
639.726	1.8375
640.292	1.635
640.857	1.75
641.423	1.745
641.99	1.8475
642.554	1.86
643.121	1.76
643.685	1.745
644.251	1.6875
644.816	1.855
645.382	1.7625
645.946	1.8725
646.512	1.815
647.077	1.805
647.643	1.7275
648.207	1.8175
648.773	1.775
649.337	1.715
649.903	1.7825
650.467	1.6925
651.031	1.775
651.597	1.75
652.161	1.8075
652.726	1.8125
653.29	1.76
653.854	1.68
654.42	1.7425
654.983	1.81
655.547	1.665
656.112	1.7825
656.676	1.75
657.24	1.675
657.805	1.7625
658.369	1.745
658.932	1.7025
659.495	1.825
660.061	1.81
660.624	1.7
661.187	1.75
661.751	1.735
662.314	1.785
662.879	1.685
663.442	1.765
664.005	1.79
664.568	1.75
665.131	1.7825
665.696	1.75
666.259	1.79
666.822	1.7525
667.385	1.715
667.948	1.68
668.511	1.76
669.074	1.75
669.636	1.79
670.199	1.71
670.762	1.76
671.325	1.71
671.889	1.7
672.452	1.7675
673.014	1.67
673.577	1.7775
674.139	1.7075
674.702	1.67
675.264	1.795
675.827	1.68
676.387	1.755
676.949	1.765
677.511	1.6825
678.074	1.6675
678.636	1.7475
679.198	1.7125
679.76	1.7175
680.322	1.67
680.884	1.69
681.446	1.76
682.008	1.675
682.568	1.8675
683.13	1.7
683.692	1.725
684.254	1.7175
684.816	1.695
685.376	1.725
685.937	1.695
686.499	1.625
687.061	1.7525
687.622	1.795
688.182	1.81
688.744	1.745
689.305	1.6975
689.867	1.615
690.426	1.5925
690.988	1.6675
691.549	1.54
692.108	1.655
692.67	1.725
693.231	1.71
693.79	1.67
694.352	1.675
694.913	1.6075
695.472	1.6575
696.033	1.595
696.592	1.535
697.153	1.5575
697.714	1.595
698.273	1.545
698.834	1.595
699.393	1.6225
699.954	1.65
700.513	1.51
701.074	1.5675
701.632	1.645
702.193	1.68
702.752	1.6225
703.313	1.6675
703.871	1.5925
704.432	1.6475
704.99	1.59
705.551	1.5675
706.109	1.645
706.668	1.62
707.228	1.615
707.787	1.605
708.347	1.61
708.905	1.6475
709.464	1.7175
710.024	1.52
710.582	1.6575
711.14	1.6475
711.7	1.585
712.259	1.71
712.817	1.5475
713.377	1.54
713.935	1.7
714.493	1.665
715.051	1.6575
715.611	1.6
716.168	1.5725
716.726	1.61
717.284	1.7175
717.844	1.66
718.402	1.6025
718.959	1.5825
719.517	1.6375
720.075	1.6475
720.632	1.625
721.192	1.675
721.749	1.6525
722.307	1.62
722.864	1.555
723.422	1.545
723.979	1.6025
724.537	1.56
725.094	1.62
725.651	1.5
726.21	1.615
726.768	1.595
727.325	1.605
727.882	1.6175
728.439	1.505
728.996	1.6475
729.553	1.5875
730.11	1.485
730.667	1.45
731.224	1.535
731.781	1.65
732.338	1.565
732.893	1.5075
733.45	1.545
734.007	1.58
734.563	1.455
735.12	1.535
735.677	1.5725
736.233	1.5875
736.79	1.52
737.346	1.49
737.901	1.4275
738.458	1.575
739.014	1.535
739.57	1.46
740.127	1.5
740.683	1.545
741.238	1.49
741.794	1.465
742.35	1.49
742.906	1.5525
743.461	1.4325
744.017	1.43
744.573	1.4575
745.129	1.43
745.683	1.425
746.239	1.405
746.795	1.5
747.349	1.5475
747.905	1.485
748.461	1.4325
749.015	1.45
749.571	1.435
750.124	1.425
750.68	1.4825
751.236	1.5325
751.79	1.5025
752.345	1.385
752.899	1.4875
753.454	1.49
754.01	1.455
754.563	1.405
755.119	1.4775
755.672	1.5125
756.228	1.455
756.781	1.4
757.337	1.4625
757.89	1.4025
758.445	1.485
758.998	1.435
759.552	1.43
760.107	1.465
760.66	1.425
761.215	1.4175
761.768	1.42
762.323	1.33
762.876	1.4125
763.429	1.485
763.984	1.435
764.537	1.4675
765.09	1.43
765.645	1.4225
766.198	1.405
766.75	1.435
767.305	1.415
767.858	1.37
768.411	1.4075
768.965	1.3875
769.518	1.325
770.07	1.3525
770.623	1.385
771.177	1.435
771.73	1.4675
772.282	1.445
772.835	1.4225
773.387	1.365
773.941	1.4525
774.494	1.315
775.046	1.3575
775.598	1.3675
776.15	1.415
776.703	1.38
777.255	1.325
777.809	1.23
778.361	1.455
778.913	1.4725
779.465	1.455
780.017	1.4075
780.569	1.3575
781.121	1.41
781.673	1.465
782.224	1.3475
782.776	1.355
783.328	1.4575
783.88	1.4075
784.431	1.4125
784.983	1.255
785.535	1.2225
786.086	1.165
786.638	1.1375
787.189	0.96
787.741	0.9575
788.292	0.9575
788.844	0.8625
789.393	0.835
789.945	0.7725
