wavenumber	counts
103.582	6.84211
103.582	-33.0526
103.978	2.10526
104.372	4.10526
104.767	4.84211
105.161	5.36842
105.555	8.73684
105.951	8.73684
106.345	8.42105
106.739	10.2105
107.134	10
107.528	8.8421
107.922	13.1579
108.318	8.63158
108.711	8.73684
109.105	11.4737
109.501	7.47368
109.894	10.2105
110.288	7.78947
110.682	7.26316
111.076	8.31579
111.471	9.05263
111.865	7.68421
112.258	8.52632
112.652	8.63158
113.046	9.36842
113.441	8.94737
113.835	9.89474
114.228	7.89474
114.622	8.10526
115.015	8.73684
115.409	9.89474
115.802	8.8421
116.197	7.05263
116.591	11.3684
116.984	7.57895
117.378	7.26316
117.771	7.89474
118.165	9.05263
118.558	12.1053
118.951	11.0526
119.345	13.4737
119.738	8.94737
120.131	10.7368
120.525	9.1579
120.918	8.31579
121.311	8.31579
121.704	9.05263
122.098	9.1579
122.491	8.21053
122.884	8.84211
123.277	10.8421
123.67	11.7895
124.062	10.1053
124.455	10.3158
124.848	11.6842
125.241	11.2632
125.634	9.05263
126.027	11.2632
126.42	9.68421
126.812	11.2632
127.204	13.4737
127.597	12.7368
127.99	13.2632
128.383	13.1579
128.775	13.5789
129.167	14.2105
129.56	13.5789
129.953	16.3158
130.344	15.6842
130.737	17.5789
131.13	22.4211
131.521	24.9474
131.914	27.3684
132.307	33.2632
132.699	43.6842
133.09	82.7368
133.483	346
133.874	1208.32
134.267	1866.74
134.659	2542.74
135.05	3455.37
135.443	3720
135.835	3696.74
136.226	3694
136.619	3616.42
137.01	3533.05
137.402	3379.68
137.793	2713.16
138.186	1892.74
138.577	876
138.969	79.1579
139.36	30.5263
139.752	21.3684
140.143	18.1053
140.535	15.6842
140.926	17.5789
141.318	15.0526
141.709	11.2632
142.101	11.4737
142.492	11.7895
142.882	11.2632
143.275	11.0526
143.665	12.1053
144.057	8.42105
144.448	10.4211
144.839	12.2105
145.231	11.8947
145.621	7.57895
146.012	10.9474
146.404	9.26316
146.794	10.1053
147.185	12.6316
147.575	12.9474
147.967	11.6842
148.357	9.78947
148.748	10.9474
149.138	11.0526
149.53	9.68421
149.92	10.6316
150.31	7.78947
150.701	7.57895
151.091	10
151.483	9.26316
151.873	9.57895
152.263	8.73684
152.653	10.3158
153.044	10.5263
153.434	9.47368
153.825	9.15789
154.215	9.57895
154.605	9.68421
154.996	10.9474
155.386	8.94737
155.776	10.4211
156.166	6.94737
156.556	10
156.946	8.42105
157.336	7.05263
157.725	7.89474
158.115	7.68421
158.505	8.63158
158.895	9.78947
159.285	10.6316
159.675	9.1579
160.065	9.89474
160.454	10.1053
160.844	7.57895
161.234	9.47368
161.624	9.36842
162.013	9.36842
162.402	10.5263
162.791	10.3158
163.181	10.9474
163.571	8
163.96	12.9474
164.35	10.2105
164.739	10.5263
165.127	11.6842
165.517	10.1053
165.906	11.5789
166.296	9.26316
166.685	9.05263
167.073	13.1579
167.463	8.52632
167.852	8.94737
168.242	10.9474
168.63	8.84211
169.019	11.1579
169.408	10.4211
169.796	10.4211
170.185	11.5789
170.575	11.1579
170.963	13.1579
171.352	10.9474
171.741	11.6842
172.129	12.2105
172.518	8.8421
172.907	11.5789
173.295	12.5263
173.684	10.4211
174.072	11.7895
174.461	14.7368
174.848	16.6316
175.237	12.3158
175.626	16.4211
176.014	18.7368
176.403	17.5789
176.79	22.1053
177.179	19.3684
177.567	24.5263
177.956	27.8947
178.343	34.2105
178.73	38
179.119	47.8947
179.507	53.5789
179.895	78.3158
180.283	128.211
180.672	520.316
181.059	2082.95
181.446	3500.32
181.835	4931.37
182.222	6416
182.609	6622.21
182.998	6588.53
183.385	6518.42
183.772	6541.9
184.161	6402.63
184.548	6188.53
184.935	5353.68
185.324	3578.74
185.711	1824.32
186.098	206.526
186.485	58.3158
186.873	43.8947
187.26	31.0526
187.647	25.5789
188.034	24.1053
188.421	24.2105
188.809	21.2632
189.196	18.4211
189.583	19.4737
189.97	13.5789
190.357	14.6316
190.743	14.2105
191.132	12.8421
191.519	12.6316
191.905	10.2105
192.292	12.1053
192.679	8.94737
193.065	11.4737
193.452	10.6316
193.839	12
194.225	9.78947
194.612	12.9474
194.998	10
195.385	11.2632
195.772	8.31579
196.158	12.5263
196.545	10.8421
196.931	9.26316
197.318	10.6316
197.704	8.31579
198.09	7.47368
198.477	8.42105
198.863	9.68421
199.25	9.57895
199.636	12.4211
200.021	7.78947
200.407	7.89474
200.793	11.8947
201.18	12.4211
201.566	12
201.952	8.10526
202.337	10.6316
202.723	12.6316
203.109	8.31579
203.496	9.1579
203.882	8.63158
204.266	10.8421
204.652	9.26316
205.039	9.47368
205.425	10.1053
205.809	6.73684
206.195	9.89474
206.581	11.0526
206.966	8.63158
207.352	8.31579
207.738	11.0526
208.124	7.47368
208.508	7.36842
208.894	7.26316
209.278	8.52632
209.664	7.47368
210.05	10.6316
210.434	7.26316
210.82	8.42105
211.204	11.3684
211.59	9.57895
211.976	8.42105
212.36	9.89474
212.746	7.26316
213.13	8.31579
213.516	7.89474
213.9	6.8421
214.286	9.26316
214.67	9.57895
215.055	7.68421
215.439	6
215.825	10.9474
216.209	8.21053
216.593	9.26316
216.979	10.7368
217.363	7.78947
217.748	6.73684
218.132	8.21053
218.516	10.8421
218.901	9.68421
219.285	10.4211
219.669	7.89474
220.054	7.89474
220.438	8.42105
220.822	6.94737
221.207	10.2105
221.591	9.36842
221.975	7.57895
222.36	8.42105
222.744	6.42105
223.128	7.89474
223.511	8.42105
223.896	6.63158
224.28	10.1053
224.664	10.3158
225.047	9.05263
225.431	8.42105
225.816	9.47368
226.2	6.21053
226.583	7.68421
226.967	8.42105
227.35	7.36842
227.734	9.47368
228.117	7.89474
228.502	7.26316
228.886	10.5263
229.269	10.3158
229.652	8.21053
230.036	9.47369
230.419	10.1053
230.802	7.47368
231.186	8.73684
231.569	7.47368
231.952	8.73684
232.336	9.68421
232.719	7.36842
233.102	8.52631
233.485	8.31579
233.868	8.10526
234.252	8.21053
234.635	8.63158
235.018	11.8947
235.401	9.36842
235.783	6.31579
236.166	10
236.549	10.2105
236.932	10.1053
237.315	9.26316
237.698	9.68421
238.081	8.73684
238.464	8.73684
238.845	8.42105
239.228	8.52632
239.611	7.36842
239.994	7.68421
240.375	7.68421
240.758	7.68421
241.141	7.15789
241.524	7.68421
241.905	10.4211
242.288	7.78947
242.67	9.68421
243.053	9.1579
243.434	7.89474
243.817	8.73684
244.2	10.4211
244.581	9.36842
244.964	10
245.346	7.26316
245.727	11.4737
246.11	9.36842
246.491	8.63158
246.874	9.26316
247.256	5.05263
247.637	6.52632
248.02	7.89474
248.401	8
248.783	7.78947
249.164	9.57895
249.546	10
249.927	6
250.31	10.2105
250.691	7.47368
251.073	7.57895
251.454	8.94737
251.836	7.78947
252.217	8.42105
252.599	9.68421
252.98	5.78947
253.362	9.26316
253.743	10.7368
254.124	7.05263
254.506	11.3684
254.886	8
255.267	8.31579
255.649	7.47368
256.03	9.89474
256.41	9.36842
256.792	10.2105
257.173	9.47369
257.554	6.94737
257.936	9.89474
258.316	8.10526
258.697	5.78947
259.077	7.05263
259.459	6.42105
259.839	8.8421
260.22	9.78947
260.6	7.57895
260.982	6.21053
261.362	9.36842
261.743	9.47369
262.123	7.57895
262.503	6
262.884	8.63158
263.265	8.73684
263.646	8.84211
264.026	7.26316
264.406	9.89474
264.786	8.73684
265.166	10
265.547	9.68421
265.927	10
266.307	8.10526
266.687	8.94737
267.067	5.89474
267.447	8.31579
267.827	8.52632
268.207	9.78947
268.587	8.63158
268.967	8.8421
269.347	9.36842
269.727	8.73684
270.107	6.42105
270.487	9.57895
270.867	8.10526
271.247	10
271.626	7.05263
272.006	6.10526
272.386	10.3158
272.766	10.3158
273.144	7.26316
273.524	9.05263
273.904	8.10526
274.284	9.47368
274.663	10.2105
275.043	11.0526
275.421	9.26316
275.801	12.2105
276.18	8.31579
276.56	8
276.938	7.15789
277.318	8
277.697	9.78947
278.077	8.21053
278.455	8.31579
278.834	8.21053
279.214	8.52632
279.592	7.78947
279.971	7.36842
280.351	6.94737
280.729	6
281.108	6.10526
281.487	8.31579
281.865	8.31579
282.245	6.42105
282.622	8.94737
283.002	5.47368
283.381	8.31579
283.759	7.47368
284.138	10.3158
284.516	7.26316
284.895	7.36842
285.273	6.63158
285.652	10
286.03	8.73684
286.409	10.5263
286.786	9.26316
287.165	9.89474
287.543	10.6316
287.922	7.89474
288.3	9.05263
288.677	9.26316
289.056	6.31579
289.434	11.0526
289.813	9.26316
290.19	7.57895
290.568	8.10526
290.947	8.84211
291.324	9.47368
291.701	8.31579
292.08	9.47369
292.458	10.4211
292.835	6.42105
293.214	7.78947
293.591	7.05263
293.968	8.8421
294.346	6.8421
294.724	10
295.102	7.78947
295.479	9.78947
295.856	9.68421
296.235	8.63158
296.612	7.26316
296.989	8.21053
297.366	9.1579
297.743	9.36842
298.12	7.57895
298.499	8
298.876	6.8421
299.253	9.57895
299.63	9.57895
300.007	9.57895
300.384	10.1053
300.761	7.57895
301.138	10.9474
301.515	7.57895
301.892	7.36842
302.269	8.94737
302.646	7.1579
303.022	10.7368
303.399	6
303.776	6.73684
304.153	6
304.53	6.84211
304.906	10.1053
305.283	6.52632
305.66	7.68421
306.037	7.26316
306.413	9.05263
306.79	8.21053
307.167	8.31579
307.543	11.4737
307.92	7.36842
308.295	7.78947
308.672	8.94737
309.048	8.63158
309.425	10.7368
309.801	8.31579
310.178	9.05263
310.553	7.68421
310.929	7.36842
311.306	9.36842
311.682	8.8421
312.057	8.94737
312.433	7.78947
312.81	5.57895
313.186	6.73684
313.561	6.52632
313.937	9.57895
314.314	7.05263
314.688	8.63158
315.065	7.36842
315.441	9.68421
315.816	8.73684
316.192	8.73684
316.568	6.21053
316.943	7.68421
317.319	9.47369
317.694	7.68421
318.07	7.89474
318.446	8.8421
318.821	10
319.197	9.78947
319.571	8
319.947	6.73684
320.322	10.4211
320.698	6.42105
321.072	10.3158
321.448	8.42105
321.823	6.31579
322.199	8.21053
322.573	9.1579
322.948	7.15789
323.323	8.31579
323.698	9.05263
324.074	7.05263
324.448	9.05263
324.822	10.3158
325.198	7.05263
325.572	6.84211
325.948	7.89474
326.322	8
326.697	6.63158
327.072	8.73684
327.447	6.42105
327.821	8.63158
328.195	8.8421
328.57	6.31579
328.945	9.47368
329.319	9.47368
329.693	7.26316
330.068	8.73684
330.442	8.63158
330.816	10
331.191	7.89474
331.565	9.47368
331.94	6.63158
332.314	9.36842
332.688	10.7368
333.062	6.42105
333.436	8.63158
333.81	10.2105
334.184	6.10526
334.559	7.47368
334.933	9.36842
335.307	9.68421
335.68	5.89474
336.054	11.6842
336.428	9.57895
336.802	7.78947
337.175	4.63158
337.549	7.26316
337.923	7.57895
338.296	7.57895
338.67	8.52632
339.044	8.73684
339.417	6.94737
339.791	8.42105
340.165	9.36842
340.538	9.26316
340.912	7.26316
341.284	8.52632
341.657	9.89474
342.031	7.89474
342.404	6.52632
342.778	9.1579
343.151	7.68421
343.525	8.94737
343.897	5.68421
344.27	8.21053
344.643	8.21053
345.017	9.89474
345.39	8
345.762	7.05263
346.135	10.2105
346.509	9.68421
346.882	7.89474
347.254	8.42105
347.627	9.57895
348	8.73684
348.373	8.8421
348.745	9.1579
349.118	6.21053
349.491	9.26316
349.863	8.8421
350.236	8.52631
350.608	8.73684
350.981	8.21053
351.354	6.63158
351.725	9.47369
352.098	8.42105
352.47	7.26316
352.843	8.31579
353.216	8.21053
353.587	9.26316
353.96	8.52632
354.332	8.84211
354.705	8.94737
355.076	7.47368
355.449	8
355.82	7.47368
356.193	8.21053
356.564	9.89474
356.936	8.21053
357.308	8.21053
357.68	10.5263
358.052	8.73684
358.424	6.63158
358.795	7.47368
359.168	8.94737
359.539	9.68421
359.911	9.1579
360.283	6.84211
360.654	8
361.026	8.21053
361.397	6.21053
361.769	8
362.14	7.26316
362.512	7.57895
362.883	8.21053
363.254	8.42105
363.625	9.47368
363.998	7.68421
364.369	10.6316
364.74	5.26316
365.111	9.05263
365.483	7.1579
365.854	10.2105
366.225	8
366.596	9.57895
366.966	8.73684
367.337	8.42105
367.708	7.89474
368.08	8
368.451	8.10526
368.822	8.84211
369.193	9.68421
369.563	9.15789
369.934	7.47368
370.305	6.10526
370.675	6.84211
371.046	7.78947
371.417	6.52632
371.787	8
372.158	10.4211
372.528	9.89474
372.899	7.26316
373.269	9.57895
373.64	9.78947
374.01	8.73684
374.381	11.3684
374.751	9.57895
375.122	7.05263
375.491	8.21053
375.861	8.94737
376.232	7.47368
376.602	6.84211
376.972	10.3158
377.343	8.94737
377.713	8.73684
378.082	8
378.452	7.89474
378.822	6.8421
379.193	10.9474
379.562	8.31579
379.932	10.1053
380.302	9.36842
380.672	9.57895
381.041	7.78947
381.411	6.73684
381.781	8.8421
382.151	9.36842
382.52	7.05263
382.89	7.47368
383.26	7.78947
383.629	6.73684
383.999	9.1579
384.367	9.05263
384.737	9.05263
385.107	6
385.476	9.05263
385.846	8.94737
386.214	6.42105
386.584	6.10526
386.954	8.8421
387.322	9.05263
387.692	7.05263
388.06	10.3158
388.43	7.89474
388.799	6.21053
389.168	10.7368
389.537	9.57895
389.906	5.47368
390.275	7.36842
390.643	7.15789
391.013	9.1579
391.381	9.47369
391.751	9.57895
392.119	7.89474
392.487	7.26316
392.857	10.4211
393.225	8.63158
393.593	11.0526
393.962	9.47368
394.33	8.10526
394.698	10.4211
395.068	8.31579
395.436	10.4211
395.804	11.7895
396.173	7.89474
396.541	9.26316
396.909	9.78947
397.277	9.57895
397.647	7.78947
398.015	7.57895
398.382	8.8421
398.75	9.1579
399.118	9.47368
399.487	10
399.855	6.94737
400.223	9.68421
400.591	10
400.959	7.89474
401.326	10.4211
401.694	9.78947
402.062	8.31579
402.429	10.9474
402.799	7.47368
403.166	8.42105
403.534	10.4211
403.902	9.89474
404.269	8.52632
404.637	8.21053
405.004	8.94737
405.372	7.57895
405.739	8.52632
406.107	8.63158
406.474	9.26316
406.842	10.4211
407.208	12.5263
407.575	8.8421
407.943	7.26316
408.31	8.42105
408.678	10.1053
409.045	11.0526
409.412	10.8421
409.78	8.94737
410.147	11.1579
410.513	8.94737
410.88	8.73684
411.247	10.4211
411.615	10.9474
411.982	10.4211
412.348	8
412.715	9.57895
413.082	8.63158
413.449	8.94737
413.815	9.26316
414.182	11.8947
414.549	7.78947
414.916	9.36842
415.282	9.05263
415.649	8.52632
416.016	9.26316
416.382	10
416.749	10.2105
417.116	8.94737
417.481	9.1579
417.848	10.6316
418.214	8.10526
418.581	9.57895
418.947	9.68421
419.313	8.94737
419.68	7.05263
420.045	7.78947
420.412	12.6316
420.777	8.94737
421.144	8
421.509	8.73684
421.876	8.8421
422.242	8.63158
422.608	11.6842
422.974	12
423.34	10
423.705	7.68421
424.071	10.7368
424.437	11.5789
424.803	10.9474
425.169	10.5263
425.534	13.0526
425.899	13.2632
426.266	13.4737
426.631	12.7368
426.996	11.7895
427.363	15.5789
427.728	11.5789
428.093	14.7368
428.459	18.9474
428.824	21.6842
429.189	23.3684
429.554	26.8421
429.92	29.8947
430.285	42.8421
430.65	50.5263
431.015	78.7368
431.38	215.053
431.746	1226.74
432.111	2697.26
432.476	3138.32
432.841	3154.32
433.206	3124
433.57	3097.16
433.937	3059.26
434.301	3044.42
434.666	3038.84
435.031	2965.58
435.395	2848
435.76	1810
436.125	464.947
436.489	61.7895
436.854	35.3684
437.218	28
437.583	22.4211
437.948	20.4211
438.312	18.1053
438.677	20.4211
439.041	12.7368
439.406	17.0526
439.77	11.8947
440.135	12.6316
440.499	11.2632
440.863	11.4737
441.228	9.78947
441.591	9.89474
441.955	11.4737
442.32	10
442.684	9.78947
443.048	10
443.412	8.21053
443.775	11.2632
444.14	7.89474
444.504	11.2632
444.868	9.68421
445.232	11.3684
445.595	11.0526
445.959	12.3158
446.323	10.5263
446.688	9.68421
447.05	8.63158
447.414	8.31579
447.778	10.9474
448.141	8.21053
448.505	11.7895
448.869	9.05263
449.232	10.8421
449.596	8.94737
449.96	6.8421
450.322	9.1579
450.686	10.2105
451.049	10.2105
451.413	8.73684
451.775	10.9474
452.139	7.15789
452.503	12.1053
452.865	10.1053
453.229	7.26316
453.591	7.89474
453.955	8.94737
454.318	11.6842
454.681	8.31579
455.044	10.4211
455.406	7.15789
455.77	8.84211
456.132	9.26316
456.496	8.8421
456.858	8.21053
457.221	8.42105
457.584	7.68421
457.946	6.94737
458.309	9.57895
458.672	6.84211
459.034	7.68421
459.397	8.21053
459.759	6.73684
460.121	7.68421
460.485	5.26316
460.847	10.4211
461.209	9.15789
461.571	8.31579
461.934	9.36842
462.296	7.36842
462.658	6.63158
463.02	8.10526
463.384	8.21053
463.745	10.4211
464.107	7.47368
464.469	10.9474
464.831	8.10526
465.193	8.63158
465.556	7.47369
465.918	6.42105
466.28	8.31579
466.641	8.84211
467.003	8.42105
467.365	8.21053
467.727	9.05263
468.088	10
468.45	9.68421
468.812	6.52632
469.173	10.6316
469.535	8.63158
469.897	10.7368
470.258	8.10526
470.62	8.73684
470.981	9.1579
471.343	6.52632
471.704	9.68421
472.066	10.8421
472.427	10.3158
472.789	7.05263
473.15	9.57895
473.512	7.78947
473.872	10.1053
474.233	9.57895
474.594	8.42105
474.956	7.89474
475.317	8.52632
475.679	8.94737
476.038	8.42105
476.4	8.84211
476.761	5.15789
477.122	10.7368
477.484	8.42105
477.843	7.47368
478.205	7.68421
478.566	10.8421
478.927	10.9474
479.287	6.73684
479.648	7.47368
480.009	9.15789
480.369	7.89474
480.73	5.68421
481.091	9.89474
481.45	11.2632
481.811	9.57895
482.171	8.52631
482.532	9.89474
482.893	8.31579
483.253	10.3158
483.614	8
483.973	8
484.334	8.73684
484.693	9.78947
485.054	7.68421
485.414	8.73684
485.775	8.84211
486.134	5.05263
486.495	8.42105
486.854	8.31579
487.215	8.52632
487.574	9.47368
487.935	8.73684
488.294	10.4211
488.654	8.52631
489.014	7.26316
